 #calculated the component:  1  2  3
 #tolerance:    2.000000E-03
 #broadening:    2.000000E-03Ha
 #scissors shift:    0.000000E+00Ha
 #energy window:    1.089015E+02eV    4.002056E+00Ha
 # Energy      Tot-Im Chi(-w,w,0)  Tot-Im Chi(-w,w,0)
 # eV          *10^-7 esu        *10^-12 m/V SI units 
 # 
       0.008163   2.255774E+00   9.448965E+01
       0.016327   2.314555E+00   9.695184E+01
       0.024490   2.375465E+00   9.950325E+01
       0.032654   2.438607E+00   1.021481E+02
       0.040817   2.504087E+00   1.048909E+02
       0.048980   2.572018E+00   1.077365E+02
       0.057144   2.642522E+00   1.106897E+02
       0.065307   2.715724E+00   1.137560E+02
       0.073471   2.791762E+00   1.169411E+02
       0.081634   2.870779E+00   1.202509E+02
       0.089798   2.952928E+00   1.236920E+02
       0.097961   3.038372E+00   1.272710E+02
       0.106124   3.127286E+00   1.309955E+02
       0.114288   3.219855E+00   1.348730E+02
       0.122451   3.316275E+00   1.389118E+02
       0.130615   3.416760E+00   1.431209E+02
       0.138778   3.521533E+00   1.475096E+02
       0.146941   3.630837E+00   1.520881E+02
       0.155105   3.744930E+00   1.568673E+02
       0.163268   3.864089E+00   1.618586E+02
       0.171432   3.988612E+00   1.670746E+02
       0.179595   4.118817E+00   1.725286E+02
       0.187759   4.255048E+00   1.782350E+02
       0.195922   4.397674E+00   1.842093E+02
       0.204085   4.547093E+00   1.904682E+02
       0.212249   4.703733E+00   1.970295E+02
       0.220412   4.868057E+00   2.039127E+02
       0.228576   5.040567E+00   2.111388E+02
       0.236739   5.221803E+00   2.187304E+02
       0.244902   5.412353E+00   2.267121E+02
       0.253066   5.612854E+00   2.351107E+02
       0.261229   5.823996E+00   2.439550E+02
       0.269393   6.046534E+00   2.532766E+02
       0.277556   6.281286E+00   2.631099E+02
       0.285720   6.529147E+00   2.734923E+02
       0.293883   6.791096E+00   2.844648E+02
       0.302046   7.068201E+00   2.960721E+02
       0.310210   7.361636E+00   3.083635E+02
       0.318373   7.672688E+00   3.213928E+02
       0.326537   8.002775E+00   3.352194E+02
       0.334700   8.353457E+00   3.499088E+02
       0.342863   8.726457E+00   3.655330E+02
       0.351027   9.123683E+00   3.821719E+02
       0.359190   9.547247E+00   3.999141E+02
       0.367354   9.999498E+00   4.188580E+02
       0.375517   1.048305E+01   4.391129E+02
       0.383681   1.100081E+01   4.608010E+02
       0.391844   1.155605E+01   4.840589E+02
       0.400007   1.215243E+01   5.090397E+02
       0.408171   1.279404E+01   5.359156E+02
       0.416334   1.348553E+01   5.648805E+02
       0.424498   1.423212E+01   5.961537E+02
       0.432661   1.503975E+01   6.299836E+02
       0.440824   1.591516E+01   6.666528E+02
       0.448988   1.686604E+01   7.064832E+02
       0.457151   1.790119E+01   7.498434E+02
       0.465315   1.903071E+01   7.971566E+02
       0.473478   2.026624E+01   8.489102E+02
       0.481641   2.162123E+01   9.056678E+02
       0.489805   2.311130E+01   9.680838E+02
       0.497968   2.475466E+01   1.036921E+03
       0.506132   2.657264E+01   1.113072E+03
       0.514295   2.859027E+01   1.197586E+03
       0.522459   3.083715E+01   1.291704E+03
       0.530622   3.334838E+01   1.396894E+03
       0.538785   3.616581E+01   1.514910E+03
       0.546949   3.933958E+01   1.647852E+03
       0.555112   4.293007E+01   1.798251E+03
       0.563276   4.701038E+01   1.969166E+03
       0.571439   5.166942E+01   2.164324E+03
       0.579602   5.701596E+01   2.388279E+03
       0.587766   6.318364E+01   2.646630E+03
       0.595929   7.033746E+01   2.946289E+03
       0.604093   7.868190E+01   3.295820E+03
       0.612256   8.847109E+01   3.705868E+03
       0.620420   1.000213E+02   4.189681E+03
       0.628583   1.137253E+02   4.763716E+03
       0.636746   1.300689E+02   5.448314E+03
       0.644910   1.496447E+02   6.268303E+03
       0.653073   1.731594E+02   7.253283E+03
       0.661237   2.014179E+02   8.436975E+03
       0.669400   2.352579E+02   9.854460E+03
       0.677563   2.753781E+02   1.153501E+04
       0.685727   3.219673E+02   1.348654E+04
       0.693890   3.739903E+02   1.566567E+04
       0.702054   4.279831E+02   1.792731E+04
       0.710217   4.763995E+02   1.995538E+04
       0.718381   5.062393E+02   2.120530E+04
       0.726544   5.000660E+02   2.094671E+04
       0.734707   4.424961E+02   1.853523E+04
       0.742871   3.322317E+02   1.391649E+04
       0.751034   1.908541E+02   7.994478E+03
       0.759198   5.558843E+01   2.328483E+03
       0.767361  -4.173481E+01  -1.748184E+03
       0.775524  -8.976546E+01  -3.760087E+03
       0.783688  -9.543255E+01  -3.997469E+03
       0.791851  -7.280472E+01  -3.049637E+03
       0.800015  -3.448560E+01  -1.444529E+03
       0.808178   1.139923E+01   4.774898E+02
       0.816342   6.085465E+01   2.549073E+03
       0.824505   1.127189E+02   4.721557E+03
       0.832668   1.675308E+02   7.017514E+03
       0.840832   2.267991E+02   9.500137E+03
       0.848995   2.925790E+02   1.225552E+04
       0.857159   3.671909E+02   1.538086E+04
       0.865322   4.529005E+02   1.897105E+04
       0.873485   5.513443E+02   2.309465E+04
       0.881649   6.623997E+02   2.774654E+04
       0.889812   7.821038E+02   3.276069E+04
       0.897976   8.992880E+02   3.766929E+04
       0.906139   9.913157E+02   4.152414E+04
       0.914302   1.021507E+03   4.278878E+04
       0.922466   9.446091E+02   3.956769E+04
       0.930629   7.278220E+02   3.048694E+04
       0.938793   3.831591E+02   1.604973E+04
       0.946956  -1.731589E+01  -7.253264E+02
       0.955120  -3.725923E+02  -1.560711E+04
       0.963283  -6.104290E+02  -2.556959E+04
       0.971446  -7.171144E+02  -3.003842E+04
       0.979610  -7.220672E+02  -3.024588E+04
       0.987773  -6.668438E+02  -2.793269E+04
       0.995937  -5.853902E+02  -2.452077E+04
       1.004100  -4.989336E+02  -2.089928E+04
       1.012263  -4.183027E+02  -1.752182E+04
       1.020427  -3.477898E+02  -1.456818E+04
       1.028590  -2.881978E+02  -1.207200E+04
       1.036754  -2.387288E+02  -9.999850E+03
       1.044917  -1.980042E+02  -8.293980E+03
       1.053081  -1.645588E+02  -6.893021E+03
       1.061244  -1.370520E+02  -5.740821E+03
       1.069407  -1.143375E+02  -4.789358E+03
       1.077571  -9.546788E+01  -3.998949E+03
       1.085734  -7.967381E+01  -3.337369E+03
       1.093898  -6.633509E+01  -2.778638E+03
       1.102061  -5.495225E+01  -2.301834E+03
       1.110224  -4.512135E+01  -1.890039E+03
       1.118388  -3.651289E+01  -1.529448E+03
       1.126551  -2.885449E+01  -1.208654E+03
       1.134715  -2.191680E+01  -9.180489E+02
       1.142878  -1.550193E+01  -6.493431E+02
       1.151042  -9.433666E+00  -3.951565E+02
       1.159205  -3.549115E+00  -1.486650E+02
       1.167368   2.309036E+00   9.672065E+01
       1.175532   8.299877E+00   3.476644E+02
       1.183695   1.459181E+01   6.112202E+02
       1.191859   2.137059E+01   8.951693E+02
       1.200022   2.884830E+01   1.208395E+03
       1.208185   3.727331E+01   1.561301E+03
       1.216349   4.694120E+01   1.966269E+03
       1.224512   5.820573E+01   2.438116E+03
       1.232676   7.148713E+01   2.994446E+03
       1.240839   8.727205E+01   3.655643E+03
       1.249003   1.060925E+02   4.443993E+03
       1.257166   1.284595E+02   5.380901E+03
       1.265329   1.547067E+02   6.480339E+03
       1.273493   1.846713E+02   7.735495E+03
       1.281656   2.171195E+02   9.094682E+03
       1.289820   2.488621E+02   1.042431E+04
       1.297983   2.737470E+02   1.146669E+04
       1.306146   2.823165E+02   1.182565E+04
       1.314310   2.637172E+02   1.104656E+04
       1.322473   2.111470E+02   8.844503E+03
       1.330637   1.287950E+02   5.394951E+03
       1.338800   3.356438E+01   1.405942E+03
       1.346963  -5.336313E+01  -2.235269E+03
       1.355127  -1.195031E+02  -5.005735E+03
       1.363290  -1.666038E+02  -6.978685E+03
       1.371454  -2.043093E+02  -8.558088E+03
       1.379617  -2.389803E+02  -1.001038E+04
       1.387781  -2.679439E+02  -1.122361E+04
       1.395944  -2.834267E+02  -1.187215E+04
       1.404107  -2.806082E+02  -1.175409E+04
       1.412271  -2.612190E+02  -1.094192E+04
       1.420434  -2.311655E+02  -9.683037E+03
       1.428598  -1.966497E+02  -8.237241E+03
       1.436761  -1.620650E+02  -6.788561E+03
       1.444924  -1.297632E+02  -5.435507E+03
       1.453088  -1.006421E+02  -4.215688E+03
       1.461251  -7.482604E+01  -3.134306E+03
       1.469415  -5.220451E+01  -2.186737E+03
       1.477578  -3.284726E+01  -1.375903E+03
       1.485742  -1.736445E+01  -7.273602E+02
       1.493905  -7.203570E+00  -3.017424E+02
       1.502068  -4.647221E+00  -1.946624E+02
       1.510232  -1.191410E+01  -4.990567E+02
       1.518395  -2.867767E+01  -1.201247E+03
       1.526559  -4.854298E+01  -2.033364E+03
       1.534722  -5.770912E+01  -2.417314E+03
       1.542885  -3.943317E+01  -1.651773E+03
       1.551049   1.782886E+01   7.468136E+02
       1.559212   1.160341E+02   4.860425E+03
       1.567376   2.501014E+02   1.047622E+04
       1.575539   4.130715E+02   1.730270E+04
       1.583703   5.988550E+02   2.508478E+04
       1.591866   8.012216E+02   3.356149E+04
       1.600029   1.009890E+03   4.230217E+04
       1.608193   1.204967E+03   5.047354E+04
       1.616356   1.352014E+03   5.663303E+04
       1.624520   1.402901E+03   5.876457E+04
       1.632683   1.309589E+03   5.485592E+04
       1.640846   1.050578E+03   4.400650E+04
       1.649010   6.506339E+02   2.725369E+04
       1.657173   1.699355E+02   7.118240E+03
       1.665337  -3.257009E+02  -1.364293E+04
       1.673500  -7.770104E+02  -3.254733E+04
       1.681664  -1.128373E+03  -4.726519E+04
       1.689827  -1.340706E+03  -5.615938E+04
       1.697990  -1.412099E+03  -5.914987E+04
       1.706154  -1.375973E+03  -5.763664E+04
       1.714317  -1.278880E+03  -5.356958E+04
       1.722481  -1.160643E+03  -4.861690E+04
       1.730644  -1.047053E+03  -4.385887E+04
       1.738807  -9.511688E+02  -3.984247E+04
       1.746971  -8.769796E+02  -3.673483E+04
       1.755134  -8.220744E+02  -3.443497E+04
       1.763298  -7.784892E+02  -3.260928E+04
       1.771461  -7.323526E+02  -3.067672E+04
       1.779625  -6.642965E+02  -2.782599E+04
       1.787788  -5.540803E+02  -2.320926E+04
       1.795951  -3.921120E+02  -1.642475E+04
       1.804115  -1.933929E+02  -8.100824E+03
       1.812278   4.669017E-01   1.955753E+01
       1.820442   1.408247E+02   5.898853E+03
       1.828605   1.999925E+02   8.377266E+03
       1.836768   1.839811E+02   7.706583E+03
       1.844932   1.229516E+02   5.150183E+03
       1.853095   5.088519E+01   2.131474E+03
       1.861259  -1.003342E+01  -4.202789E+02
       1.869422  -5.263663E+01  -2.204838E+03
       1.877585  -7.926894E+01  -3.320410E+03
       1.885749  -9.529042E+01  -3.991516E+03
       1.893912  -1.054458E+02  -4.416903E+03
       1.902076  -1.128355E+02  -4.726440E+03
       1.910239  -1.191445E+02  -4.990712E+03
       1.918403  -1.252297E+02  -5.245610E+03
       1.926566  -1.316148E+02  -5.513068E+03
       1.934729  -1.386895E+02  -5.809413E+03
       1.942893  -1.466561E+02  -6.143118E+03
       1.951056  -1.554435E+02  -6.511202E+03
       1.959220  -1.648258E+02  -6.904205E+03
       1.967383  -1.748878E+02  -7.325685E+03
       1.975546  -1.866849E+02  -7.819840E+03
       1.983710  -2.024913E+02  -8.481934E+03
       1.991873  -2.251171E+02  -9.429683E+03
       2.000037  -2.567541E+02  -1.075489E+04
       2.008200  -2.983390E+02  -1.249680E+04
       2.016364  -3.495695E+02  -1.464273E+04
       2.024527  -4.088314E+02  -1.712509E+04
       2.032690  -4.724290E+02  -1.978906E+04
       2.040854  -5.330798E+02  -2.232959E+04
       2.049017  -5.782346E+02  -2.422103E+04
       2.057181  -5.897513E+02  -2.470344E+04
       2.065344  -5.478735E+02  -2.294927E+04
       2.073507  -4.420759E+02  -1.851763E+04
       2.081671  -2.844575E+02  -1.191533E+04
       2.089834  -1.113300E+02  -4.663381E+03
       2.097998   3.575810E+01   1.497832E+03
       2.106161   1.342378E+02   5.622942E+03
       2.114325   1.869239E+02   7.829851E+03
       2.122488   2.093461E+02   8.769070E+03
       2.130651   2.144781E+02   8.984039E+03
       2.138815   2.071955E+02   8.678985E+03
       2.146978   1.879727E+02   7.873781E+03
       2.155142   1.579706E+02   6.617057E+03
       2.163305   1.203494E+02   5.041186E+03
       2.171468   7.885580E+01   3.303104E+03
       2.179632   3.651828E+01   1.529674E+03
       2.187795  -4.486399E+00  -1.879258E+02
       2.195959  -4.213120E+01  -1.764787E+03
       2.204122  -7.357031E+01  -3.081706E+03
       2.212286  -9.447660E+01  -3.957427E+03
       2.220449  -9.955007E+01  -4.169944E+03
       2.228612  -8.517284E+01  -3.567712E+03
       2.236776  -5.369903E+01  -2.249340E+03
       2.244939  -1.562720E+01  -6.545906E+02
       2.253103   1.445480E+01   6.054811E+02
       2.261266   2.580539E+01   1.080934E+03
       2.269429   1.583973E+01   6.634929E+02
       2.277593  -1.193632E+01  -4.999874E+02
       2.285756  -5.239447E+01  -2.194694E+03
       2.293920  -1.017387E+02  -4.261619E+03
       2.302083  -1.583388E+02  -6.632479E+03
       2.310246  -2.224480E+02  -9.317880E+03
       2.318410  -2.956421E+02  -1.238383E+04
       2.326573  -3.802489E+02  -1.592783E+04
       2.334737  -4.786110E+02  -2.004801E+04
       2.342900  -5.917135E+02  -2.478564E+04
       2.351064  -7.165078E+02  -3.001301E+04
       2.359227  -8.415645E+02  -3.525137E+04
       2.367390  -9.421239E+02  -3.946359E+04
       2.375554  -9.780733E+02  -4.096944E+04
       2.383717  -9.006714E+02  -3.772724E+04
       2.391881  -6.739580E+02  -2.823069E+04
       2.400044  -3.074425E+02  -1.287812E+04
       2.408207   1.265989E+02   5.302963E+03
       2.416371   5.231810E+02   2.191496E+04
       2.424534   8.058163E+02   3.375395E+04
       2.432698   9.595378E+02   4.019303E+04
       2.440861   1.012508E+03   4.241182E+04
       2.449025   1.000760E+03   4.191974E+04
       2.457188   9.507955E+02   3.982683E+04
       2.465351   8.806184E+02   3.688726E+04
       2.473515   8.041553E+02   3.368438E+04
       2.481678   7.321213E+02   3.066702E+04
       2.489842   6.712140E+02   2.811575E+04
       2.498005   6.238164E+02   2.613036E+04
       2.506168   5.881423E+02   2.463605E+04
       2.514332   5.581537E+02   2.337989E+04
       2.522495   5.233101E+02   2.192036E+04
       2.530659   4.694847E+02   1.966573E+04
       2.538822   3.833744E+02   1.605875E+04
       2.546986   2.612828E+02   1.094459E+04
       2.555149   1.171512E+02   4.907217E+03
       2.563312  -2.034458E+01  -8.521917E+02
       2.571476  -1.236249E+02  -5.178386E+03
       2.579639  -1.810530E+02  -7.583932E+03
       2.587803  -1.980229E+02  -8.294762E+03
       2.595966  -1.880045E+02  -7.875115E+03
       2.604129  -1.640461E+02  -6.871546E+03
       2.612293  -1.351888E+02  -5.662776E+03
       2.620456  -1.064563E+02  -4.459231E+03
       2.628620  -8.007900E+01  -3.354341E+03
       2.636783  -5.668691E+01  -2.374496E+03
       2.644947  -3.612278E+01  -1.513107E+03
       2.653110  -1.791762E+01  -7.505316E+02
       2.661273  -1.552580E+00  -6.503433E+01
       2.669437   1.339223E+01   5.609726E+02
       2.677600   2.715068E+01   1.137285E+03
       2.685764   3.975582E+01   1.665288E+03
       2.693927   5.116924E+01   2.143372E+03
       2.702090   6.161244E+01   2.580816E+03
       2.710254   7.195789E+01   3.014165E+03
       2.718417   8.378595E+01   3.509618E+03
       2.726581   9.890769E+01   4.143035E+03
       2.734744   1.187742E+02   4.975202E+03
       2.742907   1.443063E+02   6.044688E+03
       2.751071   1.760955E+02   7.376271E+03
       2.759234   2.145537E+02   8.987206E+03
       2.767398   2.597064E+02   1.087856E+04
       2.775561   3.104824E+02   1.300545E+04
       2.783725   3.633599E+02   1.522038E+04
       2.791888   4.102800E+02   1.718577E+04
       2.800051   4.362492E+02   1.827356E+04
       2.808215   4.185337E+02   1.753150E+04
       2.816378   3.315793E+02   1.388916E+04
       2.824542   1.615478E+02   6.766899E+03
       2.832705  -7.452615E+01  -3.121744E+03
       2.840868  -3.242000E+02  -1.358006E+04
       2.849032  -5.239462E+02  -2.194701E+04
       2.857195  -6.339138E+02  -2.655332E+04
       2.865359  -6.507365E+02  -2.725799E+04
       2.873522  -5.950919E+02  -2.492715E+04
       2.881686  -4.953133E+02  -2.074764E+04
       2.889849  -3.801215E+02  -1.592249E+04
       2.898012  -2.765891E+02  -1.158574E+04
       2.906176  -2.056012E+02  -8.612205E+03
       2.914339  -1.749673E+02  -7.329015E+03
       2.922503  -1.769210E+02  -7.410848E+03
       2.930666  -1.939294E+02  -8.123297E+03
       2.938829  -2.092774E+02  -8.766191E+03
       2.946993  -2.149028E+02  -9.001828E+03
       2.955156  -2.118322E+02  -8.873208E+03
       2.963320  -2.053682E+02  -8.602443E+03
       2.971483  -2.004806E+02  -8.397710E+03
       2.979647  -2.000937E+02  -8.381506E+03
       2.987810  -2.053522E+02  -8.601773E+03
       2.995973  -2.161995E+02  -9.056145E+03
       3.004137  -2.314555E+02  -9.695187E+03
       3.012300  -2.482357E+02  -1.039807E+04
       3.020464  -2.608102E+02  -1.092479E+04
       3.028627  -2.593673E+02  -1.086435E+04
       3.036790  -2.300646E+02  -9.636921E+03
       3.044954  -1.589080E+02  -6.656321E+03
       3.053117  -4.110876E+01  -1.721960E+03
       3.061281   1.084648E+02   4.543362E+03
       3.069444   2.551002E+02   1.068561E+04
       3.077608   3.597429E+02   1.506888E+04
       3.085771   3.983823E+02   1.668740E+04
       3.093934   3.706629E+02   1.552629E+04
       3.102098   2.968594E+02   1.243482E+04
       3.110261   2.081402E+02   8.718558E+03
       3.118425   1.331425E+02   5.577059E+03
       3.126588   8.737241E+01   3.659847E+03
       3.134751   7.197224E+01   3.014766E+03
       3.142915   7.958720E+01   3.333741E+03
       3.151078   1.002805E+02   4.200541E+03
       3.159242   1.239510E+02   5.192049E+03
       3.167405   1.401148E+02   5.869114E+03
       3.175568   1.376436E+02   5.765600E+03
       3.183732   1.071518E+02   4.488362E+03
       3.191895   4.694849E+01   1.966574E+03
       3.200059  -3.155299E+01  -1.321689E+03
       3.208222  -1.068475E+02  -4.475616E+03
       3.216386  -1.595287E+02  -6.682321E+03
       3.224549  -1.824025E+02  -7.640456E+03
       3.232712  -1.799390E+02  -7.537268E+03
       3.240876  -1.613348E+02  -6.757978E+03
       3.249039  -1.348809E+02  -5.649878E+03
       3.257203  -1.060107E+02  -4.440566E+03
       3.265366  -7.763170E+01  -3.251829E+03
       3.273529  -5.114341E+01  -2.142290E+03
       3.281693  -2.742401E+01  -1.148734E+03
       3.289856  -7.634046E+00  -3.197742E+02
       3.298020   6.217650E+00   2.604443E+02
       3.306183   1.125163E+01   4.713073E+02
       3.314347   4.928833E+00   2.064585E+02
       3.322510  -1.206103E+01  -5.052111E+02
       3.330673  -3.286002E+01  -1.376437E+03
       3.338837  -4.579525E+01  -1.918267E+03
       3.347000  -4.191813E+01  -1.755862E+03
       3.355164  -2.211038E+01  -9.261572E+02
       3.363327   4.463626E+00   1.869719E+02
       3.371490   2.813362E+01   1.178459E+03
       3.379654   4.385866E+01   1.837147E+03
       3.387817   5.073686E+01   2.125261E+03
       3.395981   4.933954E+01   2.066730E+03
       3.404144   4.022767E+01   1.685053E+03
       3.412308   2.433740E+01   1.019443E+03
       3.420471   4.031613E+00   1.688758E+02
       3.428634  -1.697252E+01  -7.109432E+02
       3.436798  -3.527228E+01  -1.477482E+03
       3.444961  -4.941467E+01  -2.069877E+03
       3.453125  -5.998481E+01  -2.512638E+03
       3.461288  -6.856838E+01  -2.872186E+03
       3.469451  -7.676580E+01  -3.215558E+03
       3.477615  -8.574283E+01  -3.591587E+03
       3.485778  -9.616829E+01  -4.028288E+03
       3.493942  -1.083098E+02  -4.536871E+03
